Altitude,Pressure,Airspeed,Q,Cd,Thrust,Accel,Mass,G
96.3945172867971,99.9958572387695,14.9719178742221,0.00101319848751427,33535.1429814263,468.713500976563,15.3384281101326,18.6407928466797,-9.80685841354747
99.0116643008078,99.9570007324219,17.4357307615191,0.00141289583497074,24014.9889622387,468.727630615234,15.3740085401332,18.6148948669434,-9.80677126322072
102.023535795277,99.9122924804688,19.9052594980026,0.00187980386749133,18024.9656535424,468.743927001953,15.4099074707417,18.588996887207,-9.80667120936521
105.431046356331,99.8617324829102,22.380514955453,0.00241424626910716,14015.2326361788,468.762329101563,15.4459489858928,18.5630989074707,-9.80655822254086
109.23511575372,99.8053131103516,24.8615438980621,0.00301653373597651,11201.2973934532,468.782897949219,15.4821685008625,18.537202835083,-9.80643227332114
113.43666529865,99.7430191040039,27.3483063495993,0.0036869508821716,9151.80612751096,468.805572509766,15.5184167744134,18.5113048553467,-9.80629333255328
118.036621338688,99.6748580932617,29.8408596929013,0.00442576195552108,7613.52204299463,468.830322265625,15.5547449805888,18.4854068756104,-9.80614137069723
123.035905247089,99.6008224487305,32.3393066326827,0.00523324345399336,6429.80522288703,468.857269287109,15.5914421845957,18.4595108032227,-9.80597635814321
128.435483336099,99.5209045410156,34.8436610281667,0.00610964886895448,5499.74381384302,468.886322021484,15.6285387456542,18.4336128234863,-9.80579826515988
134.236275092931,99.4351043701172,37.3538802689058,0.00705519117769397,4756.01290586644,468.91748046875,15.6656607089535,18.40771484375,-9.80560706210417
140.439242417109,99.3434219360352,39.8699916279268,0.00807004871423887,4152.15529981782,468.950805664063,15.7027358538834,18.3818168640137,-9.80540271915994
147.045318613411,99.2458572387695,42.3921568561113,0.00915444484684451,3655.19284354236,468.986206054688,15.7402209431996,18.3559188842773,-9.80518520608333
154.055505301105,99.1424102783203,44.9203665963299,0.0103085781483936,3241.36919629446,469.023712158203,15.7782191291972,18.330020904541,-9.80495449284418
161.470740499557,99.0330810546875,47.4546215557653,0.0115325814897382,2893.25776408477,469.063323974609,15.8163226919604,18.3041248321533,-9.80471054870364
169.29198784451,98.9178695678711,49.9949442741549,0.0128265874272225,2597.71646725713,469.105102539063,15.854474128005,18.278226852417,-9.80445334424628
177.52024736302,98.7967758178711,52.5414010842351,0.0141907145908463,2344.69181584474,469.14892578125,15.8928872075238,18.2523288726807,-9.80418284876664
186.156514849747,98.669807434082,55.0941201506224,0.0156251062321688,2126.41168036241,469.194854736328,15.9317827250503,18.226432800293,-9.80389903069242
195.201757993898,98.5369644165039,57.6530376064236,0.0171298560694067,1936.84487097139,469.242858886719,15.9709445882586,18.2005348205566,-9.80360186079174
204.656985193724,98.3982620239258,60.218183837239,0.0187049960610292,1771.21650080152,469.292999267578,16.0101701194386,18.1746368408203,-9.8032913070246
214.523197087226,98.2536926269531,62.789531043163,0.0203505408926001,1625.69775755408,469.345153808594,16.0493053316589,18.148738861084,-9.80296733937971
224.801379648387,98.1032791137695,65.3671070683253,0.0220665106000473,1497.17296632011,469.3994140625,16.0884640474248,18.1228408813477,-9.80262992713477
235.492560628103,97.9470138549805,67.950970217549,0.0238528942642621,1383.0961022554,469.455718994141,16.127890305233,18.0969429016113,-9.80227903993558
246.597699373611,97.7849044799805,70.5411633135166,0.0257097007643396,1281.39657153535,469.514068603516,16.1675203872029,18.0710468292236,-9.80191464730038
258.117858295445,97.6169738769531,73.1377872564203,0.0276369224024309,1190.3422302994,469.574493408203,16.2076082324811,18.0451488494873,-9.80153671628945
270.054098238586,97.4432220458984,75.7409118155292,0.0296345207102195,1108.50292506142,469.636932373047,16.2482189664772,18.019250869751,-9.80114521654146
282.407392721856,97.263671875,78.3506743411356,0.0317025367455751,1034.67758998517,469.701354980469,16.2894058412781,17.9933547973633,-9.80074011709142
295.178836692707,97.0783157348633,80.9669825083169,0.0338408483221884,967.871646373006,469.767791748047,16.3309663718731,17.967456817627,-9.80032138546744
308.369508047006,96.8871765136719,83.589903470778,0.0360493260550681,907.252378737831,469.836303710938,16.3724226592215,17.9415588378906,-9.79988898791821
321.980456447694,96.6902770996094,86.2192991775784,0.0383277947148785,852.09092667455,469.906768798828,16.413680925632,17.9156608581543,-9.79944289506488
336.012596255983,96.4876098632813,88.8550614380678,0.040675902952238,801.779801371862,469.979187011719,16.4543001261078,17.889762878418,-9.79898307645913
350.467105988413,96.2792129516602,91.497456255348,0.0430935402772124,755.737048480606,470.053619384766,16.4951878574504,17.8638648986816,-9.79850949955762
365.345010786434,96.0650939941406,94.1464521464669,0.0455805922600798,713.485338169069,470.130004882813,16.5366334184402,17.8379688262939,-9.79802213526912
380.647338984767,95.8452682495117,96.8020656382268,0.048136790573351,674.635796664909,470.208282470703,16.5782829032223,17.8120708465576,-9.79752094835856
396.375166866346,95.6197509765625,99.4643429737055,0.0507618810751394,638.83798656964,470.288482666016,16.6200900527569,17.7861728668213,-9.79700590952909
412.529555274872,95.3885726928711,102.133422063802,0.0534556688471102,605.77511185767,470.370635986328,16.6623098346055,17.7602767944336,-9.79647698888754
429.111650809762,95.151741027832,104.809332339007,0.0562179052542936,575.17323384343,470.454681396484,16.7050970200294,17.7343788146973,-9.79593415003522
446.122426976915,94.9092864990234,107.492042663236,0.0590483368925794,546.80831022726,470.540618896484,16.7480027562875,17.7084808349609,-9.79537736381732
463.563033048296,94.6612243652344,110.181706568066,0.0619465465569995,520.462525128764,470.628448486328,16.7913431576866,17.6825828552246,-9.79480659596696
481.434744991595,94.4075775146484,112.878314942086,0.0649123348494164,495.957568448331,470.718109130859,16.8347966449379,17.6566848754883,-9.79422181381409
499.738390417187,94.1483688354492,115.581830330189,0.0679452730330326,473.125070255023,470.809631347656,16.8785072970317,17.630786895752,-9.79362299010716
518.475369891385,93.8836288452148,118.29229535032,0.0710448945509808,451.825073860446,470.902923583984,16.9221868771889,17.6048908233643,-9.79301008359214
537.646496119676,93.6133728027344,121.00975249323,0.0742107941596116,431.922614610016,470.998046875,16.9659636130839,17.5789928436279,-9.79238306993443
557.253178217332,93.3376388549805,123.734289873758,0.0774426087495542,413.293194709523,471.094940185547,17.0101251630686,17.5530948638916,-9.79174191007106
577.296288522542,93.0564422607422,126.465939016685,0.0807399402060616,395.830926668146,471.193664550781,17.054705531591,17.5271987915039,-9.79108657629891
597.777218070463,92.7698211669922,129.204657756938,0.0841022313296059,379.448108955665,471.294067382813,17.0993761548622,17.5013008117676,-9.7904170332067
618.696944630356,92.4777984619141,131.950483404696,0.0875289362213764,364.061597409801,471.396270751953,17.1440086304598,17.4754028320313,-9.78973324778406
640.056620658841,92.1804046630859,134.703525363285,0.0910196029210831,349.586603473138,471.500183105469,17.1889716435682,17.4495048522949,-9.78903519049475
661.857451866847,91.8776702880859,137.463781888269,0.0945737324949329,335.952672295619,471.605743408203,17.234302073877,17.4236068725586,-9.7883228258027
684.100499091903,91.5696258544922,140.231234023299,0.0981907035820561,323.102375479608,471.713043212891,17.2796776682033,17.3977088928223,-9.78759612095445
706.787101189722,91.2563018798828,143.005963622798,0.101869888233353,310.976232723921,471.821990966797,17.325200342165,17.3718128204346,-9.78685504001074
729.918221018859,90.9377365112305,145.788042379071,0.105610765540274,299.518351196883,471.932556152344,17.3710749426675,17.3459148406982,-9.7860995561326
753.495283693192,90.6139678955078,148.577198575439,0.10941260477929,288.69233113194,472.044769287109,17.4165675404589,17.3200168609619,-9.78532963159136
777.519085933105,90.2850189208984,151.373732046017,0.113274492933236,278.446231882645,472.158538818359,17.4622371408494,17.2941207885742,-9.78454523425638
801.991067759926,89.9509353637695,154.177603765525,0.117196082037233,268.740727980722,472.273986816406,17.5079870026838,17.2682228088379,-9.7837463350232
826.912147321273,89.6117477416992,156.989053641843,0.12117678723654,259.523749133716,472.390899658203,17.5549524206894,17.2423248291016,-9.7829328971997
852.283864791621,89.2675018310547,159.808014938106,0.125215923420552,250.775576507741,472.509399414063,17.6021719798375,17.2164268493652,-9.78210488560156
878.107310822932,88.9182281494141,162.634445922631,0.129312527358032,242.469781134715,472.62939453125,17.6493310498702,17.1905288696289,-9.78126226994442
904.383608056349,88.56396484375,165.46835040537,0.133465893863872,234.579115466393,472.750915527344,17.6963040834617,17.1646308898926,-9.78040501666317
931.113970744074,88.2047653198242,168.309794561154,0.137675179277394,227.070106135628,472.873870849609,17.7436937652762,17.1387348175049,-9.77953309404479
958.299664222403,87.8406600952148,171.158906877434,0.141939725776611,219.921157552524,472.998321533203,17.7912873715828,17.1128368377686,-9.77864646383965
985.941902747378,87.4716873168945,174.015718523066,0.146258749746475,213.105807984761,473.124206542969,17.8394692907211,17.0869388580322,-9.77774509180107
1014.04188348982,87.097900390625,176.880370232072,0.150631547376639,206.603812924817,473.25146484375,17.8882290947995,17.0610427856445,-9.77682894838102
1042.60092940636,86.7193374633789,179.752790081897,0.155057139368149,200.40131829037,473.380126953125,17.9371199397221,17.0351448059082,-9.77589799333628
1071.62012897455,86.3360443115234,182.63300776862,0.159534701179542,194.482335824835,473.510192871094,17.9859625516887,17.0092468261719,-9.77495220055071
1101.10107562703,85.9480590820313,185.521054622026,0.164063146290919,188.82704095877,473.641540527344,18.0351120495665,16.9833488464355,-9.77399152892375
1131.0443701403,85.5554351806641,188.417045207613,0.168641788274354,183.420992952125,473.774230957031,18.0844733676166,16.9574508666992,-9.77301595320623
1161.4519147845,85.1582183837891,191.320888344268,0.173269586281972,178.248414958692,473.908233642578,18.1342424864104,16.9315528869629,-9.77202542887976
1192.32482584426,84.756462097168,194.232626815037,0.177945341655341,173.302851402086,474.043518066406,18.183704378453,16.9056568145752,-9.77101991889791
1223.66406618862,84.3502044677734,197.152033581906,0.182668090916678,168.574664305434,474.180023193359,18.2325054372946,16.8797588348389,-9.76999940655972
1255.47142521024,83.9395065307617,200.079231722821,0.187436364511231,164.045239390447,474.317779541016,18.2814842051462,16.8538608551025,-9.76896383907989
1287.74771454441,83.5244140625,203.013978620208,0.192249198194234,159.712775634282,474.456756591797,18.3295361581957,16.8279647827148,-9.76791319558094
1320.49392268772,83.1049728393555,205.956328468417,0.197104939396159,155.560577699274,474.596893310547,18.3774771016487,16.8020668029785,-9.76684744838792
1353.71147894918,82.6812515258789,208.906084743837,0.202002648343257,151.58471281207,474.738189697266,18.4245650381051,16.7761688232422,-9.76576655722328
1387.40202802373,82.253288269043,211.863310006352,0.206940837702907,147.768940510211,474.880615234375,18.471751569474,16.7502708435059,-9.76467048969068
1421.56594475312,81.8211517333984,214.827798132849,0.211918064904563,144.113783797981,475.024139404297,18.5178700753126,16.7243728637695,-9.76355923040495
1456.20485239534,81.3848876953125,217.799467044653,0.216932960628887,140.606903241761,475.168792724609,18.5634968529183,16.6984748840332,-9.76243273643925
1491.32008882274,80.9445571899414,220.778210027175,0.221983950393351,137.242134357398,475.314453125,18.6084599963769,16.6725788116455,-9.7612909728894
1526.91248911875,80.5002212524414,223.764019795277,0.227069572647386,134.011647784488,475.461181640625,18.6528814900642,16.6466808319092,-9.76013393015185
1562.98305451754,80.0519409179688,226.756766283187,0.232188573090051,130.907189454973,475.608917236328,18.6969921367121,16.6207828521729,-9.75896156321465
1599.53298220318,79.5997695922852,229.756513208345,0.237339383582603,127.921827488054,475.757629394531,18.7409311303482,16.5948867797852,-9.7577738538872
1636.56324359984,79.1437683105469,232.762848395381,0.242520228090182,125.056518611394,475.907318115234,18.78368322392,16.5689888000488,-9.75657077760869
1674.07555576239,78.6840057373047,235.775642683565,0.24772933041158,122.30555214509,476.057922363281,18.8252538941407,16.5430908203125,-9.75535229724228
1712.06962897186,78.2205505371094,238.794728929274,0.252964903117062,119.664101835711,476.209442138672,18.8655602070261,16.5171928405762,-9.75411840866636
1750.54769580113,77.7534484863281,241.820135355407,0.258225175008451,117.123322578956,476.361846923828,18.9052345278089,16.4912948608398,-9.75286906865886
1789.51001185179,77.2827835083008,244.851674425942,0.263508740425154,114.678433067607,476.515106201172,18.9442856149453,16.4653968811035,-9.75160426051475
1828.95815785788,76.8086090087891,247.889417840247,0.26881379925182,112.322092206315,476.669250488281,18.9832523452149,16.4395008087158,-9.75032397028504
1868.89248321729,76.3310012817383,250.933145949591,0.274138800626987,110.054686689888,476.824157714844,19.0213472118157,16.4136028289795,-9.74902816537481
1909.3145643106,75.8500289916992,253.98284070318,0.279481949809778,107.868844827977,476.979827880859,19.0592011497879,16.3877048492432,-9.74771682271678
1950.22446515015,75.3657455444336,257.038085346256,0.284841257820666,105.766919467423,477.136352539063,19.0957336572128,16.3618087768555,-9.74638993552043
1991.62417546997,74.8782348632813,260.099128261593,0.290215028780787,103.740966366813,477.293548583984,19.1317423706785,16.3359107971191,-9.74504746525601
2033.5137505678,74.387565612793,263.165559907875,0.295601244731252,101.790051172226,477.451446533203,19.1667933651866,16.3100128173828,-9.74368941381372
2075.89443890343,73.8938064575195,266.237629192067,0.300998367813252,99.9078626980214,477.610046386719,19.201485811534,16.2841148376465,-9.7423157463877
2118.7670159681,73.3970184326172,269.315031597898,0.306404627783598,98.0906912081437,477.769317626953,19.2359876860583,16.2582168579102,-9.74092645175157
2162.13226997375,72.8972930908203,272.397770696633,0.311818244760725,96.3379000748518,477.929229736328,19.269875524319,16.2323188781738,-9.73952151164695
2205.99099349848,72.3946990966797,275.48574434079,0.31723718686182,94.6473081357775,478.089721679688,19.3030601222929,16.2064228057861,-9.73810090973827
2250.34437938884,71.8892974853516,278.579110215862,0.322659992429744,93.0130647848202,478.250823974609,19.3362336043131,16.1805248260498,-9.73666462748539
2295.19289231102,71.3811721801758,281.677479809588,0.328084889931569,91.4336354265134,478.412475585938,19.369236353922,16.1546268463135,-9.7352126581916
2340.53764840274,70.8703918457031,284.780899233562,0.333509645918004,89.9109820394051,478.574645996094,19.401173464845,16.1287307739258,-9.73374496692336
2386.37895455211,70.3570327758789,287.8894869741,0.338932863484828,88.4381227350975,478.737365722656,19.4330900018597,16.1028327941895,-9.73226155606846
2432.7183148152,69.841178894043,291.003024837039,0.344352707293679,87.0142657386515,478.900543212891,19.4647216799933,16.0769348144531,-9.73076239290141
2479.55551620875,69.3228988647461,294.121629805238,0.349767305392798,85.6366124886734,479.064239501953,19.4962908856703,16.0510368347168,-9.72924749039336
2526.89200317895,68.8022766113281,297.245270366431,0.355175120837625,84.3023231399821,479.228302001953,19.5280335996379,16.0251388549805,-9.72771682187696
2574.7289601994,68.2793807983398,300.373824207743,0.360574436541973,83.0122509824964,479.392822265625,19.5593510447718,15.9992456436157,-9.72617035270923
2623.06629355357,67.7542953491211,303.507785825311,0.365963611548892,81.7586701443959,479.557739257813,19.5917330438414,15.9733486175537,-9.7246080981861
2671.90609953844,67.2270889282227,306.647096563914,0.371341721981911,80.5419516220346,479.723022460938,19.6247145993183,15.9474506378174,-9.72303000717558
2721.24825897382,66.6978530883789,309.791905300451,0.376707245858136,79.3591755765103,479.888641357422,19.6586919680184,15.9215526580811,-9.7214360990863
2771.09358991403,66.1666488647461,312.942200383199,0.382058404051255,78.2108714916064,480.054595947266,19.6932266572471,15.895655632019,-9.71982634974762
2821.44306383177,65.6335678100586,316.097928458037,0.387393666531664,77.0996247363463,480.220855712891,19.7273122589732,15.869758605957,-9.71820073375378
2872.29759258521,65.0986862182617,319.259804105558,0.392711983958259,76.0149363601033,480.387329101563,19.7633569194372,15.8438606262207,-9.71655923189967
2923.65896563709,64.5620803833008,322.427435830722,0.398011808632527,74.9615455876153,480.554138183594,19.7998474889985,15.8179626464844,-9.71490182814878
2975.52752409573,64.0238189697266,325.601418848211,0.403292157386571,73.9341012008013,480.721160888672,19.8379189691351,15.7920656204224,-9.7132284986395
3027.90380462317,63.4839973449707,328.781706298994,0.408551836715677,72.9324366243231,480.888366699219,19.8773628785626,15.766167640686,-9.71153923339285
3080.78957126033,62.9426803588867,331.969077115211,0.413789702238462,71.9532379442163,481.055816650391,19.9188618473667,15.740270614624,-9.70983401186521
3134.18567626004,62.3999481201172,335.163013396958,0.4190046841504,71.00083851983,481.223388671875,19.9609427043287,15.7143726348877,-9.70811279802801
3188.09342339961,61.855884552002,338.364661569474,0.424195933006463,70.0675875056686,481.391143798828,20.005546002044,15.6884746551514,-9.70637557932749
3242.51287240104,61.3105659484863,341.573902279646,0.429362794935175,69.1539044536386,481.558990478516,20.0523346383799,15.6625776290894,-9.70462234363446
3297.44699719572,60.7640609741211,344.791211615716,0.434504138813883,68.259452885231,481.726928710938,20.1012191351436,15.6366806030273,-9.70285303181307
3352.89686309756,60.2164459228516,348.016231883429,0.439618578728409,67.3892903342818,481.89501953125,20.1504947529506,15.610782623291,-9.70106763479616
3408.86204413616,59.6678047180176,351.248906338355,0.444703606702058,66.5467512680362,482.063110351563,20.1989387287045,15.5848846435547,-9.69926612722655
3465.34553969023,59.1182136535645,354.488690841091,0.44975673214417,65.7347735113824,482.231292724609,20.2454088056526,15.5589876174927,-9.69744847103112
3522.34669406875,58.5677490234375,357.73576856053,0.454776103176051,64.949188618097,482.399475097656,20.2909123615121,15.5330896377563,-9.69561468882037
3579.8687109655,58.016487121582,360.989776601959,0.459759183589527,64.1892834792442,482.567657470703,20.3354527450502,15.5071926116943,-9.69376469903149
3637.91168427607,57.4645118713379,364.250707242596,0.464704361650197,63.4536276511897,482.73583984375,20.3792352862956,15.481294631958,-9.69189850132785
3696.47622785682,56.9119033813477,367.518345114622,0.469609091826504,62.7407322933944,482.904022216797,20.4225448638389,15.4553966522217,-9.69001609713828
3755.56446349912,56.3587417602539,370.792448585538,0.474471243539723,62.0550344758831,483.072113037109,20.4637027047486,15.4294996261597,-9.68811743087584
3815.17668940977,55.8050994873047,374.072843881062,0.479288738583851,61.3925224867859,483.240142822266,20.503794633995,15.4036026000977,-9.68620250350244
3875.31303378113,55.2510681152344,377.359417851978,0.484059256497874,60.7518370158734,483.408111572266,20.5430785082551,15.3777046203613,-9.68427132970045
3935.97571218782,54.696720123291,380.652276043806,0.488780776172902,60.1313949995123,483.575897216797,20.5818869199091,15.351806640625,-9.68232383966393
3997.16566200426,54.142147064209,383.950987498736,0.493451780267904,59.5308984959895,483.743591308594,20.6201241424405,15.325909614563,-9.68036004843489
